x,y,theta
991.0,77.0,0.0
990.6666666666666,76.66666666666667,0.0
990.3333333333334,76.33333333333333,0.0
990.0,76.0,0.0
989.6666666666666,75.66666666666667,0.0
989.3333333333334,75.33333333333333,0.0
989.0,75.0,0.0
988.6666666666666,74.66666666666667,0.0
988.3333333333334,74.33333333333333,0.0
988.0,74.0,0.0
987.5,74.0,0.0
987.0,74.0,0.0
986.6666666666666,73.66666666666667,0.0
986.3333333333334,73.33333333333333,0.0
986.0,73.0,0.0
985.6666666666666,72.66666666666667,0.0
985.3333333333334,72.33333333333333,0.0
985.0,72.0,0.0
984.6666666666666,71.66666666666667,0.0
984.3333333333334,71.33333333333333,0.0
984.0,71.0,0.0
983.6666666666666,70.66666666666667,0.0
983.3333333333334,70.33333333333333,0.0
983.0,70.0,0.0
982.5,70.0,0.0
982.0,70.0,0.0
981.5,70.0,0.0
981.0,70.0,0.0
980.5,70.0,0.0
980.0,70.0,0.0
979.5,70.0,0.0
979.0,70.0,0.0
978.5,70.0,0.0
978.0,70.0,0.0
977.5,70.0,0.0
977.0,70.0,0.0
976.5,70.0,0.0
976.0,70.0,0.0
975.5,70.0,0.0
975.0,70.0,0.0
974.5,70.0,0.0
974.0,70.0,0.0
973.5,70.0,0.0
973.0,70.0,0.0
972.5,70.0,0.0
972.0,70.0,0.0
971.5,70.0,0.0
971.0,70.0,0.0
970.5,70.0,0.0
970.0,70.0,0.0
969.5,70.0,0.0
969.0,70.0,0.0
968.5,70.0,0.0
968.0,70.0,0.0
967.5,70.0,0.0
967.0,70.0,0.0
966.5,70.0,0.0
966.0,70.0,0.0
965.5,70.0,0.0
965.0,70.0,0.0
964.5,70.0,0.0
964.0,70.0,0.0
963.5,70.0,0.0
963.0,70.0,0.0
962.5,70.0,0.0
962.0,70.0,0.0
961.5,70.0,0.0
961.0,70.0,0.0
960.5,70.0,0.0
960.0,70.0,0.0
959.5,70.0,0.0
959.0,70.0,0.0
958.5,70.0,0.0
958.0,70.0,0.0
957.5,70.0,0.0
957.0,70.0,0.0
956.5,70.0,0.0
956.0,70.0,0.0
955.5,70.0,0.0
955.0,70.0,0.0
954.5,70.0,0.0
954.0,70.0,0.0
953.5,70.0,0.0
953.0,70.0,0.0
952.5,70.0,0.0
952.0,70.0,0.0
951.5,70.0,0.0
951.0,70.0,0.0
950.5,70.0,0.0
950.0,70.0,0.0
949.5,70.0,0.0
949.0,70.0,0.0
948.5,70.0,0.0
948.0,70.0,0.0
947.5,70.0,0.0
947.0,70.0,0.0
946.5,70.0,0.0
946.0,70.0,0.0
945.5,70.0,0.0
945.0,70.0,0.0
944.5,70.0,0.0
944.0,70.0,0.0
943.5,70.0,0.0
943.0,70.0,0.0
942.5,70.0,0.0
942.0,70.0,0.0
941.5,70.0,0.0
941.0,70.0,0.0
940.5,70.0,0.0
940.0,70.0,0.0
939.5,70.0,0.0
939.0,70.0,0.0
938.5,70.0,0.0
938.0,70.0,0.0
937.5,70.0,0.0
937.0,70.0,0.0
936.5,70.0,0.0
936.0,70.0,0.0
935.5,70.0,0.0
935.0,70.0,0.0
934.5,70.0,0.0
934.0,70.0,0.0
933.5,70.0,0.0
933.0,70.0,0.0
932.5,70.0,0.0
932.0,70.0,0.0
931.5,70.0,0.0
931.0,70.0,0.0
930.5,70.0,0.0
930.0,70.0,0.0
929.5,70.0,0.0
929.0,70.0,0.0
928.5,70.0,0.0
928.0,70.0,0.0
927.5,70.0,0.0
927.0,70.0,0.0
926.5,70.0,0.0
926.0,70.0,0.0
925.5,70.0,0.0
925.0,70.0,0.0
924.5,70.0,0.0
924.0,70.0,0.0
923.5,70.0,0.0
923.0,70.0,0.0
922.5,70.0,0.0
922.0,70.0,0.0
921.5,70.0,0.0
921.0,70.0,0.0
920.5,70.0,0.0
920.0,70.0,0.0
919.5,70.0,0.0
919.0,70.0,0.0
918.5,70.0,0.0
918.0,70.0,0.0
917.5,70.0,0.0
917.0,70.0,0.0
916.5,70.0,0.0
916.0,70.0,0.0
915.5,70.0,0.0
915.0,70.0,0.0
914.5,70.0,0.0
914.0,70.0,0.0
913.5,70.0,0.0
913.0,70.0,0.0
912.5,70.0,0.0
912.0,70.0,0.0
911.5,70.0,0.0
911.0,70.0,0.0
910.5,70.0,0.0
910.0,70.0,0.0
909.5,70.0,0.0
909.0,70.0,0.0
908.5,70.0,0.0
908.0,70.0,0.0
907.5,70.0,0.0
907.0,70.0,0.0
906.5,70.0,0.0
906.0,70.0,0.0
905.5,70.0,0.0
905.0,70.0,0.0
904.5,70.0,0.0
904.0,70.0,0.0
903.5,70.0,0.0
903.0,70.0,0.0
902.5,70.0,0.0
902.0,70.0,0.0
901.5,70.0,0.0
901.0,70.0,0.0
900.5,70.0,0.0
900.0,70.0,0.0
899.5,70.0,0.0
899.0,70.0,0.0
898.5,70.0,0.0
898.0,70.0,0.0
897.5,70.0,0.0
897.0,70.0,0.0
896.5,70.0,0.0
896.0,70.0,0.0
895.5,70.0,0.0
895.0,70.0,0.0
894.5,70.0,0.0
894.0,70.0,0.0
893.5,70.0,0.0
893.0,70.0,0.0
892.5,70.0,0.0
892.0,70.0,0.0
891.5,70.0,0.0
891.0,70.0,0.0
890.5,70.0,0.0
890.0,70.0,0.0
889.5,70.0,0.0
889.0,70.0,0.0
888.5,70.0,0.0
888.0,70.0,0.0
887.5,70.0,0.0
887.0,70.0,0.0
886.5,70.0,0.0
886.0,70.0,0.0
885.5,70.0,0.0
885.0,70.0,0.0
884.5,70.0,0.0
884.0,70.0,0.0
883.5,70.0,0.0
883.0,70.0,0.0
882.5,70.0,0.0
882.0,70.0,0.0
881.5,70.0,0.0
881.0,70.0,0.0
880.5,70.0,0.0
880.0,70.0,0.0
879.5,70.0,0.0
879.0,70.0,0.0
878.5,70.0,0.0
878.0,70.0,0.0
877.5,70.0,0.0
877.0,70.0,0.0
876.5,70.0,0.0
876.0,70.0,0.0
875.5,70.0,0.0
875.0,70.0,0.0
874.5,70.0,0.0
874.0,70.0,0.0
873.5,70.0,0.0
873.0,70.0,0.0
872.5,70.0,0.0
872.0,70.0,0.0
871.5,70.0,0.0
871.0,70.0,0.0
870.5,70.0,0.0
870.0,70.0,0.0
869.5,70.0,0.0
869.0,70.0,0.0
868.5,70.0,0.0
868.0,70.0,0.0
867.5,70.0,0.0
867.0,70.0,0.0
866.5,70.0,0.0
866.0,70.0,0.0
865.5,70.0,0.0
865.0,70.0,0.0
864.5,70.0,0.0
864.0,70.0,0.0
863.5,70.0,0.0
863.0,70.0,0.0
862.5,70.0,0.0
862.0,70.0,0.0
861.5,70.0,0.0
861.0,70.0,0.0
860.5,70.0,0.0
860.0,70.0,0.0
859.5,70.0,0.0
859.0,70.0,0.0
858.5,70.0,0.0
858.0,70.0,0.0
857.5,70.0,0.0
857.0,70.0,0.0
856.5,70.0,0.0
856.0,70.0,0.0
855.5,70.0,0.0
855.0,70.0,0.0
854.5,70.0,0.0
854.0,70.0,0.0
853.5,70.0,0.0
853.0,70.0,0.0
852.5,70.0,0.0
852.0,70.0,0.0
851.5,70.0,0.0
851.0,70.0,0.0
850.5,70.0,0.0
850.0,70.0,0.0
849.5,70.0,0.0
849.0,70.0,0.0
848.5,70.0,0.0
848.0,70.0,0.0
847.5,70.0,0.0
847.0,70.0,0.0
846.5,70.0,0.0
846.0,70.0,0.0
845.5,70.0,0.0
845.0,70.0,0.0
844.5,70.0,0.0
844.0,70.0,0.0
843.5,70.0,0.0
843.0,70.0,0.0
842.5,70.0,0.0
842.0,70.0,0.0
841.5,70.0,0.0
841.0,70.0,0.0
840.5,70.0,0.0
840.0,70.0,0.0
839.5,70.0,0.0
839.0,70.0,0.0
838.5,70.0,0.0
838.0,70.0,0.0
837.5,70.0,0.0
837.0,70.0,0.0
836.5,70.0,0.0
836.0,70.0,0.0
835.5,70.0,0.0
835.0,70.0,0.0
834.5,70.0,0.0
834.0,70.0,0.0
833.5,70.0,0.0
833.0,70.0,0.0
832.5,70.0,0.0
832.0,70.0,0.0
831.5,70.0,0.0
831.0,70.0,0.0
830.5,70.0,0.0
830.0,70.0,0.0
829.5,70.0,0.0
829.0,70.0,0.0
828.5,70.0,0.0
828.0,70.0,0.0
827.5,70.0,0.0
827.0,70.0,0.0
826.5,70.0,0.0
826.0,70.0,0.0
825.5,70.0,0.0
825.0,70.0,0.0
824.5,70.0,0.0
824.0,70.0,0.0
823.5,70.0,0.0
823.0,70.0,0.0
822.5,70.0,0.0
822.0,70.0,0.0
821.5,70.0,0.0
821.0,70.0,0.0
820.5,70.0,0.0
820.0,70.0,0.0
819.5,70.0,0.0
819.0,70.0,0.0
818.5,70.0,0.0
818.0,70.0,0.0
817.5,70.0,0.0
817.0,70.0,0.0
816.5,70.0,0.0
816.0,70.0,0.0
815.5,70.0,0.0
815.0,70.0,0.0
814.5,70.0,0.0
814.0,70.0,0.0
813.5,70.0,0.0
813.0,70.0,0.0
812.5,70.0,0.0
812.0,70.0,0.0
811.5,70.0,0.0
811.0,70.0,0.0
810.5,70.0,0.0
810.0,70.0,0.0
809.5,70.0,0.0
809.0,70.0,0.0
808.5,70.0,0.0
808.0,70.0,0.0
807.5,70.0,0.0
807.0,70.0,0.0
806.5,70.0,0.0
806.0,70.0,0.0
805.5,70.0,0.0
805.0,70.0,0.0
804.5,70.0,0.0
804.0,70.0,0.0
803.5,70.0,0.0
803.0,70.0,0.0
802.5,70.0,0.0
802.0,70.0,0.0
801.5,70.0,0.0
801.0,70.0,0.0
800.5,70.0,0.0
800.0,70.0,0.0
799.5,70.0,0.0
799.0,70.0,0.0
798.5,70.0,0.0
798.0,70.0,0.0
797.5,70.0,0.0
797.0,70.0,0.0
796.5,70.0,0.0
796.0,70.0,0.0
795.5,70.0,0.0
795.0,70.0,0.0
794.5,70.0,0.0
794.0,70.0,0.0
793.5,70.0,0.0
793.0,70.0,0.0
792.5,70.0,0.0
792.0,70.0,0.0
791.5,70.0,0.0
791.0,70.0,0.0
790.5,70.0,0.0
790.0,70.0,0.0
789.5,70.0,0.0
789.0,70.0,0.0
788.5,70.0,0.0
788.0,70.0,0.0
787.5,70.0,0.0
787.0,70.0,0.0
786.5,70.0,0.0
786.0,70.0,0.0
785.5,70.0,0.0
785.0,70.0,0.0
784.5,70.0,0.0
784.0,70.0,0.0
783.5,70.0,0.0
783.0,70.0,0.0
782.5,70.0,0.0
782.0,70.0,0.0
781.5,70.0,0.0
781.0,70.0,0.0
780.5,70.0,0.0
780.0,70.0,0.0
779.5,70.0,0.0
779.0,70.0,0.0
778.5,70.0,0.0
778.0,70.0,0.0
777.5,70.0,0.0
777.0,70.0,0.0
776.5,70.0,0.0
776.0,70.0,0.0
775.5,70.0,0.0
775.0,70.0,0.0
774.5,70.0,0.0
774.0,70.0,0.0
773.5,70.0,0.0
773.0,70.0,0.0
772.5,70.0,0.0
772.0,70.0,0.0
771.5,70.0,0.0
771.0,70.0,0.0
770.5,70.0,0.0
770.0,70.0,0.0
769.5,70.0,0.0
769.0,70.0,0.0
768.5,70.0,0.0
768.0,70.0,0.0
767.5,70.0,0.0
767.0,70.0,0.0
766.5,70.0,0.0
766.0,70.0,0.0
765.5,70.0,0.0
765.0,70.0,0.0
764.5,70.0,0.0
764.0,70.0,0.0
763.5,70.0,0.0
763.0,70.0,0.0
762.5,70.0,0.0
762.0,70.0,0.0
761.5,70.0,0.0
761.0,70.0,0.0
760.5,70.0,0.0
760.0,70.0,0.0
759.5,70.0,0.0
759.0,70.0,0.0
758.5,70.0,0.0
758.0,70.0,0.0
757.5,70.0,0.0
757.0,70.0,0.0
756.5,70.0,0.0
756.0,70.0,0.0
755.5,70.0,0.0
755.0,70.0,0.0
754.5,70.0,0.0
754.0,70.0,0.0
753.5,70.0,0.0
753.0,70.0,0.0
752.5,70.0,0.0
752.0,70.0,0.0
751.5,70.0,0.0
751.0,70.0,0.0
750.5,70.0,0.0
750.0,70.0,0.0
749.5,70.0,0.0
749.0,70.0,0.0
748.5,70.0,0.0
748.0,70.0,0.0
747.5,70.0,0.0
747.0,70.0,0.0
746.5,70.0,0.0
746.0,70.0,0.0
745.5,70.0,0.0
745.0,70.0,0.0
744.5,70.0,0.0
744.0,70.0,0.0
743.5,70.0,0.0
743.0,70.0,0.0
742.5,70.0,0.0
742.0,70.0,0.0
741.5,70.0,0.0
741.0,70.0,0.0
740.5,70.0,0.0
740.0,70.0,0.0
739.5,70.0,0.0
739.0,70.0,0.0
738.5,70.0,0.0
738.0,70.0,0.0
737.5,70.0,0.0
737.0,70.0,0.0
736.5,70.0,0.0
736.0,70.0,0.0
735.5,70.0,0.0
735.0,70.0,0.0
734.5,70.0,0.0
734.0,70.0,0.0
733.5,70.0,0.0
733.0,70.0,0.0
732.5,70.0,0.0
732.0,70.0,0.0
731.5,70.0,0.0
731.0,70.0,0.0
730.5,70.0,0.0
730.0,70.0,0.0
729.5,70.0,0.0
729.0,70.0,0.0
728.5,70.0,0.0
728.0,70.0,0.0
727.5,70.0,0.0
727.0,70.0,0.0
726.5,70.0,0.0
726.0,70.0,0.0
725.5,70.0,0.0
725.0,70.0,0.0
724.5,70.0,0.0
724.0,70.0,0.0
723.5,70.0,0.0
723.0,70.0,0.0
722.5,70.0,0.0
722.0,70.0,0.0
721.5,70.0,0.0
721.0,70.0,0.0
720.5,70.0,0.0
720.0,70.0,0.0
719.5,70.0,0.0
719.0,70.0,0.0
718.5,70.0,0.0
718.0,70.0,0.0
717.5,70.0,0.0
717.0,70.0,0.0
716.5,70.0,0.0
716.0,70.0,0.0
715.5,70.0,0.0
715.0,70.0,0.0
714.5,70.0,0.0
714.0,70.0,0.0
713.5,70.0,0.0
713.0,70.0,0.0
712.5,70.0,0.0
712.0,70.0,0.0
711.5,70.0,0.0
711.0,70.0,0.0
710.5,70.0,0.0
710.0,70.0,0.0
709.5,70.0,0.0
709.0,70.0,0.0
708.5,70.0,0.0
708.0,70.0,0.0
707.5,70.0,0.0
707.0,70.0,0.0
706.5,70.0,0.0
706.0,70.0,0.0
705.5,70.0,0.0
705.0,70.0,0.0
704.5,70.0,0.0
704.0,70.0,0.0
703.5,70.0,0.0
703.0,70.0,0.0
702.5,70.0,0.0
702.0,70.0,0.0
701.5,70.0,0.0
701.0,70.0,0.0
700.5,70.0,0.0
700.0,70.0,0.0
699.5,70.0,0.0
699.0,70.0,0.0
698.5,70.0,0.0
698.0,70.0,0.0
697.5,70.0,0.0
697.0,70.0,0.0
696.5,70.0,0.0
696.0,70.0,0.0
695.5,70.0,0.0
695.0,70.0,0.0
694.5,70.0,0.0
694.0,70.0,0.0
693.5,70.0,0.0
693.0,70.0,0.0
692.5,70.0,0.0
692.0,70.0,0.0
691.5,70.0,0.0
691.0,70.0,0.0
690.5,70.0,0.0
690.0,70.0,0.0
689.5,70.0,0.0
689.0,70.0,0.0
688.5,70.0,0.0
688.0,70.0,0.0
687.5,70.0,0.0
687.0,70.0,0.0
686.5,70.0,0.0
686.0,70.0,0.0
685.5,70.0,0.0
685.0,70.0,0.0
684.5,70.0,0.0
684.0,70.0,0.0
683.5,70.0,0.0
683.0,70.0,0.0
682.5,70.0,0.0
682.0,70.0,0.0
681.5,70.0,0.0
681.0,70.0,0.0
680.5,70.0,0.0
680.0,70.0,0.0
679.5,70.0,0.0
679.0,70.0,0.0
678.5,70.0,0.0
678.0,70.0,0.0
677.5,70.0,0.0
677.0,70.0,0.0
676.5,70.0,0.0
676.0,70.0,0.0
675.5,70.0,0.0
675.0,70.0,0.0
674.5,70.0,0.0
674.0,70.0,0.0
673.5,70.0,0.0
673.0,70.0,0.0
672.5,70.0,0.0
672.0,70.0,0.0
671.5,70.0,0.0
671.0,70.0,0.0
670.5,70.0,0.0
670.0,70.0,0.0
669.5,70.0,0.0
669.0,70.0,0.0
668.5,70.0,0.0
668.0,70.0,0.0
667.5,70.0,0.0
667.0,70.0,0.0
666.5,70.0,0.0
666.0,70.0,0.0
665.5,70.0,0.0
665.0,70.0,0.0
664.5,70.0,0.0
664.0,70.0,0.0
663.5,70.0,0.0
663.0,70.0,0.0
662.5,70.0,0.0
662.0,70.0,0.0
661.5,70.0,0.0
661.0,70.0,0.0
660.5,70.0,0.0
660.0,70.0,0.0
659.5,70.0,0.0
659.0,70.0,0.0
658.5,70.0,0.0
658.0,70.0,0.0
657.5,70.0,0.0
657.0,70.0,0.0
656.5,70.0,0.0
656.0,70.0,0.0
655.5,70.0,0.0
655.0,70.0,0.0
654.5,70.0,0.0
654.0,70.0,0.0
653.5,70.0,0.0
653.0,70.0,0.0
652.5,70.0,0.0
652.0,70.0,0.0
651.5,70.0,0.0
651.0,70.0,0.0
650.5,70.0,0.0
650.0,70.0,0.0
649.5,70.0,0.0
649.0,70.0,0.0
648.5,70.0,0.0
648.0,70.0,0.0
647.5,70.0,0.0
647.0,70.0,0.0
646.5,70.0,0.0
646.0,70.0,0.0
645.5,70.0,0.0
645.0,70.0,0.0
644.5,70.0,0.0
644.0,70.0,0.0
643.5,70.0,0.0
643.0,70.0,0.0
642.5,70.0,0.0
642.0,70.0,0.0
641.5,70.0,0.0
641.0,70.0,0.0
640.5,70.0,0.0
640.0,70.0,0.0
639.5,70.0,0.0
639.0,70.0,0.0
638.5,70.0,0.0
638.0,70.0,0.0
637.5,70.0,0.0
637.0,70.0,0.0
636.5,70.0,0.0
636.0,70.0,0.0
635.5,70.0,0.0
635.0,70.0,0.0
634.5,70.0,0.0
634.0,70.0,0.0
633.5,70.0,0.0
633.0,70.0,0.0
632.5,70.0,0.0
632.0,70.0,0.0
631.5,70.0,0.0
631.0,70.0,0.0
630.5,70.0,0.0
630.0,70.0,0.0
629.5,70.0,0.0
629.0,70.0,0.0
628.5,70.0,0.0
628.0,70.0,0.0
627.5,70.0,0.0
627.0,70.0,0.0
626.5,70.0,0.0
626.0,70.0,0.0
625.5,70.0,0.0
625.0,70.0,0.0
624.5,70.0,0.0
624.0,70.0,0.0
623.5,70.0,0.0
623.0,70.0,0.0
622.5,70.0,0.0
622.0,70.0,0.0
621.5,70.0,0.0
621.0,70.0,0.0
620.5,70.0,0.0
620.0,70.0,0.0
619.5,70.0,0.0
619.0,70.0,0.0
618.5,70.0,0.0
618.0,70.0,0.0
617.5,70.0,0.0
617.0,70.0,0.0
616.5,70.0,0.0
616.0,70.0,0.0
615.5,70.0,0.0
615.0,70.0,0.0
614.5,70.0,0.0
614.0,70.0,0.0
613.5,70.0,0.0
613.0,70.0,0.0
612.5,70.0,0.0
612.0,70.0,0.0
611.5,70.0,0.0
611.0,70.0,0.0
610.5,70.0,0.0
610.0,70.0,0.0
609.5,70.0,0.0
609.0,70.0,0.0
608.5,70.0,0.0
608.0,70.0,0.0
607.5,70.0,0.0
607.0,70.0,0.0
606.5,70.0,0.0
606.0,70.0,0.0
605.5,70.0,0.0
605.0,70.0,0.0
604.5,70.0,0.0
604.0,70.0,0.0
603.5,70.0,0.0
603.0,70.0,0.0
602.5,70.0,0.0
602.0,70.0,0.0
601.5,70.0,0.0
601.0,70.0,0.0
600.5,70.0,0.0
600.0,70.0,0.0
599.5,70.0,0.0
599.0,70.0,0.0
598.5,70.0,0.0
598.0,70.0,0.0
597.5,70.0,0.0
597.0,70.0,0.0
596.5,70.0,0.0
596.0,70.0,0.0
595.5,70.0,0.0
595.0,70.0,0.0
594.5,70.0,0.0
594.0,70.0,0.0
593.5,70.0,0.0
593.0,70.0,0.0
592.5,70.0,0.0
592.0,70.0,0.0
591.5,70.0,0.0
591.0,70.0,0.0
590.5,70.0,0.0
590.0,70.0,0.0
589.5,70.0,0.0
589.0,70.0,0.0
588.5,70.0,0.0
588.0,70.0,0.0
587.5,70.0,0.0
587.0,70.0,0.0
586.5,70.0,0.0
586.0,70.0,0.0
585.5,70.0,0.0
585.0,70.0,0.0
584.5,70.0,0.0
584.0,70.0,0.0
583.5,70.0,0.0
583.0,70.0,0.0
582.5,70.0,0.0
582.0,70.0,0.0
581.5,70.0,0.0
581.0,70.0,0.0
580.5,70.0,0.0
580.0,70.0,0.0
579.5,70.0,0.0
579.0,70.0,0.0
578.5,70.0,0.0
578.0,70.0,0.0
577.5,70.0,0.0
577.0,70.0,0.0
576.5,70.0,0.0
576.0,70.0,0.0
575.5,70.0,0.0
575.0,70.0,0.0
574.5,70.0,0.0
574.0,70.0,0.0
573.5,70.0,0.0
573.0,70.0,0.0
572.5,70.0,0.0
572.0,70.0,0.0
571.5,70.0,0.0
571.0,70.0,0.0
570.5,70.0,0.0
570.0,70.0,0.0
569.5,70.0,0.0
569.0,70.0,0.0
568.5,70.0,0.0
568.0,70.0,0.0
567.5,70.0,0.0
567.0,70.0,0.0
566.5,70.0,0.0
566.0,70.0,0.0
565.5,70.0,0.0
565.0,70.0,0.0
564.5,70.0,0.0
564.0,70.0,0.0
563.5,70.0,0.0
563.0,70.0,0.0
562.5,70.0,0.0
562.0,70.0,0.0
561.5,70.0,0.0
561.0,70.0,0.0
560.5,70.0,0.0
560.0,70.0,0.0
559.5,70.0,0.0
559.0,70.0,0.0
558.5,70.0,0.0
558.0,70.0,0.0
557.5,70.0,0.0
557.0,70.0,0.0
556.5,70.0,0.0
556.0,70.0,0.0
555.5,70.0,0.0
555.0,70.0,0.0
554.5,70.0,0.0
554.0,70.0,0.0
553.5,70.0,0.0
553.0,70.0,0.0
552.5,70.0,0.0
552.0,70.0,0.0
551.5,70.0,0.0
551.0,70.0,0.0
550.5,70.0,0.0
550.0,70.0,0.0
549.5,70.0,0.0
549.0,70.0,0.0
548.5,70.0,0.0
548.0,70.0,0.0
547.5,70.0,0.0
547.0,70.0,0.0
546.5,70.0,0.0
546.0,70.0,0.0
545.5,70.0,0.0
545.0,70.0,0.0
544.5,70.0,0.0
544.0,70.0,0.0
543.5,70.0,0.0
543.0,70.0,0.0
542.5,70.0,0.0
542.0,70.0,0.0
541.5,70.0,0.0
541.0,70.0,0.0
540.5,70.0,0.0
540.0,70.0,0.0
539.5,70.0,0.0
539.0,70.0,0.0
538.5,70.0,0.0
538.0,70.0,0.0
537.5,70.0,0.0
537.0,70.0,0.0
536.5,70.0,0.0
536.0,70.0,0.0
535.5,70.0,0.0
535.0,70.0,0.0
534.5,70.0,0.0
534.0,70.0,0.0
533.5,70.0,0.0
533.0,70.0,0.0
532.5,70.0,0.0
532.0,70.0,0.0
531.5,70.0,0.0
531.0,70.0,0.0
530.5,70.0,0.0
530.0,70.0,0.0
529.5,70.0,0.0
529.0,70.0,0.0
528.5,70.0,0.0
528.0,70.0,0.0
527.5,70.0,0.0
527.0,70.0,0.0
526.5,70.0,0.0
526.0,70.0,0.0
525.5,70.0,0.0
525.0,70.0,0.0
524.5,70.0,0.0
524.0,70.0,0.0
523.5,70.0,0.0
523.0,70.0,0.0
522.5,70.0,0.0
522.0,70.0,0.0
521.5,70.0,0.0
521.0,70.0,0.0
520.5,70.0,0.0
520.0,70.0,0.0
519.5,70.0,0.0
519.0,70.0,0.0
518.5,70.0,0.0
518.0,70.0,0.0
517.5,70.0,0.0
517.0,70.0,0.0
516.5,70.0,0.0
516.0,70.0,0.0
515.5,70.0,0.0
515.0,70.0,0.0
514.5,70.0,0.0
514.0,70.0,0.0
513.5,70.0,0.0
513.0,70.0,0.0
512.5,70.0,0.0
512.0,70.0,0.0
511.5,70.0,0.0
511.0,70.0,0.0
510.5,70.0,0.0
510.0,70.0,0.0
509.5,70.0,0.0
509.0,70.0,0.0
508.5,70.0,0.0
508.0,70.0,0.0
507.5,70.0,0.0
507.0,70.0,0.0
506.5,70.0,0.0
506.0,70.0,0.0
505.5,70.0,0.0
505.0,70.0,0.0
504.5,70.0,0.0
504.0,70.0,0.0
503.5,70.0,0.0
503.0,70.0,0.0
502.5,70.0,0.0
502.0,70.0,0.0
501.5,70.0,0.0
501.0,70.0,0.0
500.5,70.0,0.0
500.0,70.0,0.0
499.5,70.0,0.0
499.0,70.0,0.0
498.5,70.0,0.0
498.0,70.0,0.0
497.5,70.0,0.0
497.0,70.0,0.0
496.5,70.0,0.0
496.0,70.0,0.0
495.5,70.0,0.0
495.0,70.0,0.0
494.5,70.0,0.0
494.0,70.0,0.0
493.5,70.0,0.0
493.0,70.0,0.0
492.5,70.0,0.0
492.0,70.0,0.0
491.5,70.0,0.0
491.0,70.0,0.0
490.5,70.0,0.0
490.0,70.0,0.0
489.5,70.0,0.0
489.0,70.0,0.0
488.5,70.0,0.0
488.0,70.0,0.0
487.5,70.0,0.0
487.0,70.0,0.0
486.5,70.0,0.0
486.0,70.0,0.0
485.5,70.0,0.0
485.0,70.0,0.0
484.5,70.0,0.0
484.0,70.0,0.0
483.5,70.0,0.0
483.0,70.0,0.0
482.5,70.0,0.0
482.0,70.0,0.0
481.5,70.0,0.0
481.0,70.0,0.0
480.5,70.0,0.0
480.0,70.0,0.0
479.5,70.0,0.0
479.0,70.0,0.0
478.5,70.0,0.0
478.0,70.0,0.0
477.5,70.0,0.0
477.0,70.0,0.0
476.5,70.0,0.0
476.0,70.0,0.0
475.5,70.0,0.0
475.0,70.0,0.0
474.5,70.0,0.0
474.0,70.0,0.0
473.5,70.0,0.0
473.0,70.0,0.0
472.5,70.0,0.0
472.0,70.0,0.0
471.5,70.0,0.0
471.0,70.0,0.0
470.5,70.0,0.0
470.0,70.0,0.0
469.5,70.0,0.0
469.0,70.0,0.0
468.5,70.0,0.0
468.0,70.0,0.0
467.5,70.0,0.0
467.0,70.0,0.0
466.5,70.0,0.0
466.0,70.0,0.0
465.5,70.0,0.0
465.0,70.0,0.0
464.5,70.0,0.0
464.0,70.0,0.0
463.5,70.0,0.0
463.0,70.0,0.0
462.5,70.0,0.0
462.0,70.0,0.0
461.5,70.0,0.0
461.0,70.0,0.0
460.5,70.0,0.0
460.0,70.0,0.0
459.5,70.0,0.0
459.0,70.0,0.0
458.5,70.0,0.0
458.0,70.0,0.0
457.5,70.0,0.0
457.0,70.0,0.0
456.5,70.0,0.0
456.0,70.0,0.0
455.5,70.0,0.0
455.0,70.0,0.0
454.5,70.0,0.0
454.0,70.0,0.0
453.5,70.0,0.0
453.0,70.0,0.0
452.5,70.0,0.0
452.0,70.0,0.0
451.5,70.0,0.0
451.0,70.0,0.0
450.5,70.0,0.0
450.0,70.0,0.0
449.5,70.0,0.0
449.0,70.0,0.0
448.5,70.0,0.0
448.0,70.0,0.0
447.5,70.0,0.0
447.0,70.0,0.0
446.5,70.0,0.0
446.0,70.0,0.0
445.5,70.0,0.0
445.0,70.0,0.0
444.5,70.0,0.0
444.0,70.0,0.0
443.5,70.0,0.0
443.0,70.0,0.0
442.5,70.0,0.0
442.0,70.0,0.0
441.5,70.0,0.0
441.0,70.0,0.0
440.5,70.0,0.0
440.0,70.0,0.0
439.5,70.0,0.0
439.0,70.0,0.0
438.5,70.0,0.0
438.0,70.0,0.0
437.5,70.0,0.0
437.0,70.0,0.0
436.5,70.0,0.0
436.0,70.0,0.0
435.5,70.0,0.0
435.0,70.0,0.0
434.5,70.0,0.0
434.0,70.0,0.0
433.5,70.0,0.0
433.0,70.0,0.0
432.5,70.0,0.0
432.0,70.0,0.0
431.5,70.0,0.0
431.0,70.0,0.0
430.5,70.0,0.0
430.0,70.0,0.0
429.5,70.0,0.0
429.0,70.0,0.0
428.5,70.0,0.0
428.0,70.0,0.0
427.5,70.0,0.0
427.0,70.0,0.0
426.5,70.0,0.0
426.0,70.0,0.0
425.5,70.0,0.0
425.0,70.0,0.0
424.5,70.0,0.0
424.0,70.0,0.0
423.5,70.0,0.0
423.0,70.0,0.0
422.5,70.0,0.0
422.0,70.0,0.0
421.5,70.0,0.0
421.0,70.0,0.0
420.5,70.0,0.0
420.0,70.0,0.0
419.5,70.0,0.0
419.0,70.0,0.0
418.5,70.0,0.0
418.0,70.0,0.0
417.5,70.0,0.0
417.0,70.0,0.0
416.5,70.0,0.0
416.0,70.0,0.0
415.5,70.0,0.0
415.0,70.0,0.0
414.5,70.0,0.0
414.0,70.0,0.0
413.5,70.0,0.0
413.0,70.0,0.0
412.5,70.0,0.0
412.0,70.0,0.0
411.5,70.0,0.0
411.0,70.0,0.0
410.5,70.0,0.0
410.0,70.0,0.0
409.5,70.0,0.0
409.0,70.0,0.0
408.5,70.0,0.0
408.0,70.0,0.0
407.5,70.0,0.0
407.0,70.0,0.0
406.5,70.0,0.0
406.0,70.0,0.0
405.5,70.0,0.0
405.0,70.0,0.0
404.5,70.0,0.0
404.0,70.0,0.0
403.5,70.0,0.0
403.0,70.0,0.0
402.5,70.0,0.0
402.0,70.0,0.0
401.5,70.0,0.0
401.0,70.0,0.0
400.5,70.0,0.0
400.0,70.0,0.0
399.5,70.0,0.0
399.0,70.0,0.0
398.5,70.0,0.0
398.0,70.0,0.0
397.5,70.0,0.0
397.0,70.0,0.0
396.5,70.0,0.0
396.0,70.0,0.0
395.5,70.0,0.0
395.0,70.0,0.0
394.5,70.0,0.0
394.0,70.0,0.0
393.5,70.0,0.0
393.0,70.0,0.0
392.5,70.0,0.0
392.0,70.0,0.0
391.5,70.0,0.0
391.0,70.0,0.0
390.5,70.0,0.0
390.0,70.0,0.0
389.5,70.0,0.0
389.0,70.0,0.0
388.5,70.0,0.0
388.0,70.0,0.0
387.5,70.0,0.0
387.0,70.0,0.0
386.5,70.0,0.0
386.0,70.0,0.0
385.5,70.0,0.0
385.0,70.0,0.0
384.5,70.0,0.0
384.0,70.0,0.0
383.5,70.0,0.0
383.0,70.0,0.0
382.5,70.0,0.0
382.0,70.0,0.0
381.5,70.0,0.0
381.0,70.0,0.0
380.5,70.0,0.0
380.0,70.0,0.0
379.5,70.0,0.0
379.0,70.0,0.0
378.5,70.0,0.0
378.0,70.0,0.0
377.5,70.0,0.0
377.0,70.0,0.0
376.5,70.0,0.0
376.0,70.0,0.0
375.5,70.0,0.0
375.0,70.0,0.0
374.5,70.0,0.0
374.0,70.0,0.0
373.5,70.0,0.0
373.0,70.0,0.0
372.5,70.0,0.0
372.0,70.0,0.0
371.5,70.0,0.0
371.0,70.0,0.0
370.5,70.0,0.0
370.0,70.0,0.0
369.5,70.0,0.0
369.0,70.0,0.0
368.5,70.0,0.0
368.0,70.0,0.0
367.5,70.0,0.0
367.0,70.0,0.0
366.5,70.0,0.0
366.0,70.0,0.0
365.5,70.0,0.0
365.0,70.0,0.0
364.5,70.0,0.0
364.0,70.0,0.0
363.5,70.0,0.0
363.0,70.0,0.0
362.5,70.0,0.0
362.0,70.0,0.0
361.5,70.0,0.0
361.0,70.0,0.0
360.5,70.0,0.0
360.0,70.0,0.0
359.5,70.0,0.0
359.0,70.0,0.0
358.5,70.0,0.0
358.0,70.0,0.0
357.5,70.0,0.0
357.0,70.0,0.0
356.5,70.0,0.0
356.0,70.0,0.0
355.5,70.0,0.0
355.0,70.0,0.0
354.5,70.0,0.0
354.0,70.0,0.0
353.5,70.0,0.0
353.0,70.0,0.0
352.5,70.0,0.0
352.0,70.0,0.0
351.5,70.0,0.0
351.0,70.0,0.0
350.5,70.0,0.0
350.0,70.0,0.0
349.5,70.0,0.0
349.0,70.0,0.0
348.5,70.0,0.0
348.0,70.0,0.0
347.5,70.0,0.0
347.0,70.0,0.0
346.5,70.0,0.0
346.0,70.0,0.0
345.5,70.0,0.0
345.0,70.0,0.0
344.5,70.0,0.0
344.0,70.0,0.0
343.5,70.0,0.0
343.0,70.0,0.0
342.5,70.0,0.0
342.0,70.0,0.0
341.5,70.0,0.0
341.0,70.0,0.0
340.5,70.0,0.0
